[Curve Information]
Name=Spectrum
Data=Spectrum
Class=TLWNumNode

[Comment]


[Measurement Conditions]
IntegrationTime [ms]=20000
Averages=1
Filter=N/A
SerialNumber=01004003
CCDTemperature=N/A
DCCCDTemperature=N/A
Last Dark Current [min]=31.1
Signal Level (Counts) [Counts]=2617
Signal Level (%) [%]=68
Spectrometer=MAS40
Configuration=C:\SphereCalibrations\010040s9.ini, 9/23/2019 2:24:47 PM
Calibration=C:\SphereCalibrations\010040s9.isc, 9/23/2019 2:13:46 PM
Measurement Setup=MAS 40 + ISP-75 - 010040s9
Desktop=C:\Users\TEMP USER\Desktop\190923 Small Sphere for UV LED - Zollner.swd
Currentsource=Keithley 2400
Currentsource/Averages=1
Currentsource/NPLC=0.01
Currentsource/SettlingTime [ms]=0
Currentsource/SourceAutoClear=on
Currentsource/SourceCurrent [mA]=0.6
Currentsource/Compliance [V]=30
Currentsource/SourceUnit=mA
Currentsource/ComplianceUnit=V
AnalysisRange=236 - 807 nm
Measurement Mode=SpectralAnalysis
IlluminantReference=Illuminant E (0.3333;0.3333)
Observer [ï¿½]=2
CRIMode=DIN 6169

[Results]
Currentsource/Current [mA]=0.6000134
Currentsource/Voltage [V]=5.371752
Currentsource/Mode=Current source
Radiometric [W]=0.000151918947692739
Photometric [lm]=0.000211622883630243
Scotopic [lm]=0.00083593408625891
RadiometricUnit=W
PhotometricUnit=lm
ScotopicUnit=lm
RadiometricName=Radiant power
PhotometricName=Luminous flux
ScotopicName=Luminous flux
UVA [W]=3.15606687967666E-005
UVB [W]=9.65505209783971E-005
UVC [W]=2.25679783410607E-005
VIS [W]=1.31946294661344E-006
Tristimulus_X [lm]=0.000197284635928624
Tristimulus_Y [lm]=0.000211622883630243
Tristimulus_Z [lm]=0.000521184440839671
FootLambert [MSCP]=1.68543233219372E-005
ColorCoordinates/x=0.212113042934044
ColorCoordinates/y=0.227528989219049
ColorCoordinates/z=0.560357967846907
ColorCoordinates/u=0.159900621612753
ColorCoordinates/v1960=0.257282812323523
ColorCoordinates/v1976=0.385924218485285
PeakWavelength [nm]=293.380491632174
CentroidWavelength [nm]=301.242477731373
DominantWavelength [nm]=479.250839990999
Purity=0.506998772106566
Width50 [nm]=47.9593965277373
CCT [K]=0
CCT_JIS [K]=
PlanckDistance=0
RedEffect [%]=6.64836482119457
VisEffect [%]=23.4824525638035
CRI=0
CRI/CRI01=0
CRI/CRI02=0
CRI/CRI03=0
CRI/CRI04=0
CRI/CRI05=0
CRI/CRI06=0
CRI/CRI07=0
CRI/CRI08=0
CRI/CRI09=0
CRI/CRI10=0
CRI/CRI11=0
CRI/CRI12=0
CRI/CRI13=0
CRI/CRI14=0
CRI/CRI15=0
CRI/CRI16=0
CDI=0
CRITemp [K]=
Calculations/EQE [%]=5.9864418825053
Calculations/WPE [%]=4.7134080560685
Calculations/Lum. Eff. [lm/watt]=0.0656577089099274

[General Information]
Date=9/24/2021
Time=6:21:00 PM
User=TEMP USER
Version=3.1.0.1814
Application=SpecWin Pro

[Data]
Name=Spectrum
Type=Double
NumberOfDataX=1672
NumberOfDataY=2
X-MIN=235.990600585938
X-MAX=806.997497558594
X-Unit=nm
Y-Unit=W/nm
Data
235.990600585938    -4.36938059067415E-008
236.362930297852	-1.6752586873281E-008
236.735260009766    -9.47201854728519E-008
237.10758972168 -4.21510968351413E-008
237.479919433594	-8.46849204094724E-008
237.852233886719	-2.32266170741013E-008
238.224563598633	-2.58020467214237E-008
238.596893310547	-1.82751538346793E-008
238.969223022461	-1.78964825181538E-008
239.341552734375	-7.46673123330766E-009
239.713882446289	-1.00688088977563E-008
240.086212158203	-1.24254739830576E-008
240.458541870117	6.65823449708114E-008
240.830856323242	1.09392246372408E-007
241.203186035156	1.58949418960219E-007
241.57551574707	8.00872541617537E-008
241.947845458984	6.35866044262912E-008
242.320175170898	5.81707730873404E-008
242.692504882813	5.21836867051206E-008
243.064834594727	2.90601889219033E-008
243.437149047852	-7.62504281937026E-009
243.809478759766	-5.23052312573213E-009
244.18180847168	-3.05414893375655E-008
244.554138183594	-3.72379211910356E-008
244.926467895508	6.75418920792481E-009
245.298797607422	3.65534198465411E-008
245.671127319336	5.31727657460124E-008
246.043441772461	3.39076784428016E-008
246.415771484375	4.4599445914173E-008
246.788101196289	3.10530481328897E-008
247.160430908203	1.19361187600475E-008
247.532760620117	7.61626939294047E-009
247.905090332031	2.4869017956064E-009
248.277420043945	1.75991630158023E-008
248.64973449707	1.38412437067359E-008
249.022064208984	3.92495138612503E-008
249.394393920898	4.64435245817185E-008
249.766723632813	4.15202556780514E-008
250.139053344727	1.62240798573521E-008
250.511383056641	1.56815556096035E-008
250.883712768555	2.79378529199903E-008
251.25602722168	6.03283965006085E-008
251.628356933594	4.04222539884813E-008
252.000686645508	3.71877533211773E-008
252.373016357422	2.92700086390596E-008
252.745346069336	4.13514626984579E-008
253.11767578125	4.62243150423092E-008
253.490005493164	7.2535499384685E-008
253.862335205078	6.06646892720164E-008
254.234649658203	4.84998423644356E-008
254.606979370117	1.38403724037062E-008
254.979309082031	3.16533821376197E-008
255.351638793945	4.76281876160556E-008
255.723968505859	5.66743345586929E-008
256.096282958984	6.05915246865152E-008
256.468627929687	5.01222459092787E-008
256.840942382813	7.35707601506874E-008
257.213287353516	7.37252818794332E-008
257.585601806641	8.38876701436675E-008
257.957916259766	7.67690551128908E-008
258.330261230469	8.75436541036834E-008
258.702575683594	1.2334339771769E-007
259.074920654297	1.54833585952474E-007
259.447235107422	1.59212291350741E-007
259.819580078125	1.4897750588716E-007
260.19189453125	1.36696684194249E-007
260.564208984375	1.78101416281606E-007
260.936553955078	2.1059005916868E-007
261.308868408203	2.46868097519837E-007
261.681213378906	2.49888444159296E-007
262.053527832031	2.68597403874082E-007
262.425872802734	2.72910256171599E-007
262.798187255859	3.1102331377042E-007
263.170532226562	3.27012173784169E-007
263.542846679687	3.65206744845636E-007
263.915161132813	3.76981347471883E-007
264.287506103516	4.20045864757412E-007
264.659820556641	4.20543017298769E-007
265.032165527344	4.7126627578109E-007
265.404479980469	4.97473479299515E-007
265.776824951172	5.36372454007505E-007
266.149139404297	5.42690770544141E-007
266.521453857422	5.71007149119396E-007
266.893798828125	6.31413627161237E-007
267.26611328125	6.64782817239029E-007
267.638458251953	7.30833221496141E-007
268.010772705078	7.57235682158353E-007
268.383117675781	7.83859150033095E-007
268.755432128906	7.8171177619879E-007
269.127746582031	8.33567071367725E-007
269.500091552734	9.06508148545981E-007
269.872406005859	9.70130486166454E-007
270.244750976562	1.0159047860725E-006
270.617065429687	1.06830225377053E-006
270.989410400391	1.09760344457754E-006
271.361724853516	1.1703178870448E-006
271.734039306641	1.23732365864271E-006
272.106384277344	1.30400042053225E-006
272.478698730469	1.31152978610771E-006
272.851043701172	1.38040638830716E-006
273.223358154297	1.40910628942947E-006
273.595703125	1.42741112085787E-006
273.968017578125	1.43278725772689E-006
274.34033203125	1.4990748695709E-006
274.712677001953	1.58788384396757E-006
275.084991455078	1.69012878359354E-006
275.457336425781	1.72891634520056E-006
275.829650878906	1.81026655354799E-006
276.201995849609	1.83527197350486E-006
276.574310302734	1.88436297321459E-006
276.946624755859	1.94441645362531E-006
277.318969726562	1.93764367395488E-006
277.691284179687	2.06993036044878E-006
278.063629150391	2.12379904951376E-006
278.435943603516	2.2761619220546E-006
278.808288574219	2.29788702199585E-006
279.180603027344	2.33840000873897E-006
279.552917480469	2.33916466640949E-006
279.925262451172	2.34713684221788E-006
280.297576904297	2.33142986871826E-006
280.669921875	2.3663076262892E-006
281.042236328125	2.3772583972459E-006
281.414581298828	2.45085448113969E-006
281.786895751953	2.47489606408635E-006
282.159210205078	2.55446525443404E-006
282.531555175781	2.59446983363887E-006
282.903869628906	2.6216857804684E-006
283.276214599609	2.56398107012501E-006
283.648529052734	2.58458271673589E-006
284.020874023438	2.54799238064152E-006
284.393188476562	2.67952054855414E-006
284.765502929687	2.75263391813496E-006
285.137847900391	2.94008236778609E-006
285.510162353516	2.87180228042416E-006
285.882507324219	2.89687363874691E-006
286.254821777344	2.86216709355358E-006
286.627166748047	2.90283946924319E-006
286.999481201172	2.87752436634037E-006
287.371795654297	2.87476473204151E-006
287.744140625	2.84579709841637E-006
288.116455078125	2.89234412775841E-006
288.488800048828	2.9243778953969E-006
288.861114501953	3.02712146549311E-006
289.233459472656	2.97270571536501E-006
289.605773925781	2.92273603008653E-006
289.978088378906	2.91538003693859E-006
290.350433349609	2.93688663077774E-006
290.722747802734	3.02682110486785E-006
291.095092773438	3.02517582895234E-006
291.467407226562	3.0892140330252E-006
291.839752197266	3.05803882838518E-006
292.212066650391	3.064372776862E-006
292.584411621094	3.11621670334716E-006
292.956726074219	3.14216413244139E-006
293.329040527344	3.20901381201111E-006
293.701385498047	3.14810426971235E-006
294.073699951172	3.12045563077845E-006
294.446044921875	3.07470304505841E-006
294.818359375	3.08412109006895E-006
295.190704345703	3.12670158564288E-006
295.563018798828	3.09309780277545E-006
295.935333251953	3.05604908135138E-006
296.307678222656	2.92637582788302E-006
296.679992675781	2.9062439352856E-006
297.051605224609	2.87326997749915E-006
297.423187255859	2.96784287456831E-006
297.794769287109	2.97944325211574E-006
298.166351318359	2.9927609830338E-006
298.537963867188	2.94423603008909E-006
298.909545898438	2.9184798222559E-006
299.281127929687	2.94331948680338E-006
299.652740478516	2.95856966658903E-006
300.024322509766	2.97524911729852E-006
300.395904541016	2.9435627766361E-006
300.767486572266	2.93966968456516E-006
301.139099121094	2.94116807708633E-006
301.510681152344	2.92575691673846E-006
301.882263183594	2.83693748315272E-006
302.253875732422	2.80190715784556E-006
302.625457763672	2.74318108495208E-006
302.997039794922	2.78041534329532E-006
303.368621826172	2.7863061404787E-006
303.740234375	2.80692825072038E-006
304.11181640625	2.73774867309839E-006
304.4833984375	2.71205226454185E-006
304.855010986328	2.70043142336362E-006
305.226593017578	2.70997884399549E-006
305.598175048828	2.68104986389517E-006
305.969787597656	2.68448570750479E-006
306.341369628906	2.67375594376062E-006
306.712951660156	2.70681539404904E-006
307.084533691406	2.66193274001125E-006
307.456146240234	2.62852950072556E-006
307.827728271484	2.5861604626698E-006
308.199310302734	2.57941337622469E-006
308.570922851562	2.59510034084087E-006
308.942504882812	2.53949042416934E-006
309.314086914063	2.53620760304329E-006
309.685668945313	2.52427571467706E-006
310.057281494141	2.50871130447194E-006
310.428863525391	2.43036629399285E-006
310.800445556641	2.40819008467952E-006
311.172058105469	2.3815582608222E-006
311.543640136719	2.41684415414056E-006
311.915222167969	2.37486187870672E-006
312.286804199219	2.40261942963116E-006
312.658416748047	2.35309312301979E-006
313.029998779297	2.36216078519647E-006
313.392517089844	2.2971189537202E-006
313.755035400391	2.32750790019054E-006
314.117553710937	2.3278610115085E-006
314.480072021484	2.33788819059555E-006
314.842590332031	2.25827966460201E-006
315.205108642578	2.20846141019138E-006
315.567626953125	2.20142010221025E-006
315.930145263672	2.20093329517113E-006
316.292663574219	2.17884530684387E-006
316.655181884766	2.10472626349656E-006
317.017700195313	2.06037589123298E-006
317.380218505859	2.0168347418803E-006
317.742736816406	2.01892498807865E-006
318.105255126953	2.02419096240192E-006
318.4677734375	1.98217185243266E-006
318.830291748047	1.98282714336528E-006
319.192810058594	1.94609924619726E-006
319.555328369141	1.97642270904907E-006
319.917846679687	1.90528010080016E-006
320.280334472656	1.85310977940389E-006
320.642852783203	1.77797153355641E-006
321.00537109375	1.77684216851048E-006
321.367889404297	1.73975820416672E-006
321.730407714844	1.73834462202649E-006
322.092926025391	1.67400287409691E-006
322.455444335937	1.6458330946989E-006
322.817962646484	1.59177955083578E-006
323.180480957031	1.57015597324062E-006
323.542999267578	1.52532868469279E-006
323.905517578125	1.47653247495327E-006
324.268035888672	1.42033354677551E-006
324.630554199219	1.40934901082801E-006
324.993072509766	1.39434325774346E-006
325.355590820313	1.36130199734907E-006
325.718109130859	1.30181138047192E-006
326.080627441406	1.26338193240372E-006
326.443145751953	1.23448876365728E-006
326.8056640625	1.21854054668802E-006
327.168182373047	1.17113631858956E-006
327.530700683594	1.14001340989489E-006
327.893218994141	1.08913661733823E-006
328.255737304687	1.07128118997934E-006
328.618255615234	1.03371246495954E-006
328.980773925781	1.00827935511916E-006
329.343292236328	9.54708980316354E-007
329.705810546875	9.24641028632323E-007
330.068328857422	8.82115955391782E-007
330.430847167969	8.51388790579222E-007
330.793365478516	8.12873167888029E-007
331.155883789063	8.0029730042952E-007
331.518402099609	7.68537631756772E-007
331.880920410156	7.35908486149128E-007
332.243438720703	6.98603798809927E-007
332.60595703125	6.68568816308834E-007
332.968475341797	6.43394685084786E-007
333.330993652344	6.23727771653648E-007
333.693481445313	6.0332087059578E-007
334.055999755859	5.81197923565924E-007
334.418518066406	5.40535381787777E-007
334.781036376953	5.1704171255551E-007
335.1435546875	4.87984323171986E-007
335.506072998047	4.7603157327103E-007
335.868591308594	4.58364922906185E-007
336.231109619141	4.45420823780296E-007
336.593627929687	4.21083058199656E-007
336.956146240234	3.96339316921512E-007
337.318664550781	3.68344757362138E-007
337.681182861328	3.4721585961961E-007
338.043701171875	3.37747991352444E-007
338.406219482422	3.21932674296477E-007
338.768737792969	3.10706013806339E-007
339.131256103516	2.85860693338691E-007
339.493774414063	2.72889877805937E-007
339.856292724609	2.56556177191669E-007
340.218811035156	2.4787237862256E-007
340.581329345703	2.39443551208751E-007
340.94384765625	2.29880257052173E-007
341.306365966797	2.15568050521142E-007
341.668884277344	2.03525559072659E-007
342.031402587891	1.93270949466751E-007
342.393920898438	1.85801326324508E-007
342.756439208984	1.77290417013865E-007
343.118957519531	1.66670389489809E-007
343.481475830078	1.55972585957898E-007
343.843994140625	1.45326552569713E-007
344.206512451172	1.38743729394264E-007
344.569030761719	1.31765673927475E-007
344.931549072266	1.25633178527096E-007
345.294067382812	1.18575343321936E-007
345.656585693359	1.12758357317944E-007
346.019104003906	1.05722058663105E-007
346.381622314453	9.98520022221783E-008
346.744140625	9.40449638164864E-008
347.106628417969	9.18355880230592E-008
347.469146728516	8.78349482036356E-008
347.831665039063	8.44748200279355E-008
348.194183349609	7.96789407786491E-008
348.556701660156	7.63519452107175E-008
348.919219970703	7.15320283006804E-008
349.28173828125	6.83263152723157E-008
349.644256591797	6.49953975084827E-008
350.006774902344	6.18484747860748E-008
350.369293212891	5.88019872793666E-008
350.731811523438	5.5095839002206E-008
351.094329833984	5.21255181240576E-008
351.456848144531	4.89877187703769E-008
351.819366455078	4.75581956038695E-008
352.181884765625	4.60936071533524E-008
352.544403076172	4.39667466878291E-008
352.906921386719	4.09106313270513E-008
353.269439697266	3.98152408820351E-008
353.631958007812	3.86649432471131E-008
353.994476318359	3.65902934618134E-008
354.356994628906	3.42977166667424E-008
354.719512939453	3.2625166568323E-008
355.08203125	3.17400115079636E-008
355.444549560547	2.97275644101092E-008
355.807067871094	2.86639032509584E-008
356.169586181641	2.72025424408184E-008
356.532104492188	2.67516391261324E-008
356.894622802734	2.56284717892186E-008
357.257141113281	2.52023184543759E-008
357.619659423828	2.44008155902975E-008
357.982177734375	2.37440822559165E-008
358.344696044922	2.31281678253481E-008
358.707214355469	2.30802772449579E-008
359.069732666016	2.20537312856095E-008
359.432250976562	2.10538271261385E-008
359.794769287109	2.07010799613272E-008
360.157287597656	1.98828455921785E-008
360.519775390625	1.96940046492955E-008
360.882293701172	1.79828845148222E-008
361.244812011719	1.67110254523095E-008
361.607330322266	1.51434260686756E-008
361.969848632812	1.44586849160078E-008
362.332366943359	1.51480676890969E-008
362.694885253906	1.46552610047479E-008
363.057403564453	1.46959600044738E-008
363.419921875	1.42548328696535E-008
363.782440185547	1.45501575232743E-008
364.144958496094	1.38338567268192E-008
364.507476806641	1.22887602316268E-008
364.869995117188	1.15767955222168E-008
365.230804443359	1.11264988333915E-008
365.591644287109	1.17861764792337E-008
365.952453613281	1.24157342185072E-008
366.313262939453	1.2796215642652E-008
366.674102783203	1.23983001643069E-008
367.034912109375	1.19844019152993E-008
367.395721435547	1.11104538902396E-008
367.756530761719	1.08468380943805E-008
368.117370605469	1.12666649343396E-008
368.478179931641	1.20465291075789E-008
368.838989257812	1.08270068466254E-008
369.199829101562	9.22793397251098E-009
369.560638427734	8.20118639666134E-009
369.921447753906	8.94561846820352E-009
370.282287597656	9.6153538464705E-009
370.643096923828	1.04598925076971E-008
371.00390625	1.08455768810245E-008
371.364715576172	1.06657855880599E-008
371.725555419922	9.95475879506103E-009
372.086364746094	9.24019705195178E-009
372.447174072266	9.76638681038366E-009
372.808013916016	9.36837274423397E-009
373.168823242188	1.07033510943211E-008
373.529632568359	9.88685844305337E-009
373.890441894531	1.05975797026758E-008
374.251281738281	9.44927780466287E-009
374.612091064453	9.61653423559028E-009
374.972900390625	9.1594012374685E-009
375.333740234375	9.36151778319072E-009
375.694549560547	1.01764987547881E-008
376.055358886719	1.01160608778628E-008
376.416168212891	9.1631298104744E-009
376.777008056641	7.64974572575738E-009
377.137817382812	7.86284104492552E-009
377.498626708984	8.8181852930802E-009
377.859466552734	9.18420806073073E-009
378.220275878906	8.79833361722149E-009
378.581085205078	8.72968630716286E-009
378.94189453125	9.11490083410627E-009
379.302734375	9.24614163011484E-009
379.663543701172	8.7365856771271E-009
380.024353027344	7.88823939501526E-009
380.385192871094	7.84679698995205E-009
380.746002197266	8.10344324975176E-009
381.106811523438	8.31420177149766E-009
381.467651367188	8.67544347471494E-009
381.828460693359	8.70889049764401E-009
382.189270019531	8.74791172833511E-009
382.550079345703	8.60212256981185E-009
382.910919189453	8.65954952189441E-009
383.271728515625	9.24103371602314E-009
383.632537841797	9.23562648580401E-009
383.993377685547	9.35264932167001E-009
384.354187011719	9.83687176159265E-009
384.714996337891	9.81175141134827E-009
385.075805664063	9.46198674967036E-009
385.436645507812	8.16937006931084E-009
385.797454833984	7.69231611741361E-009
386.158264160156	7.74131603265005E-009
386.519104003906	8.49079562215138E-009
386.879913330078	8.8611509241332E-009
387.24072265625	9.57360413167407E-009
387.601531982422	9.13283138004317E-009
387.962371826172	9.31869692522014E-009
388.323181152344	8.74014549623325E-009
388.683990478516	9.20062070974836E-009
389.044830322266	8.54833714925007E-009
389.405639648438	8.35945357380297E-009
389.766448974609	8.6170794943996E-009
390.127258300781	9.43066957859173E-009
390.488098144531	9.20556963990293E-009
390.848907470703	9.00048924279417E-009
391.209716796875	8.91180640394396E-009
391.570556640625	9.3632257502918E-009
391.931365966797	9.38337940681322E-009
392.292175292969	9.14543285546188E-009
392.653015136719	9.0351788273324E-009
393.013824462891	9.05028318953782E-009
393.374633789063	9.13969788740587E-009
393.735443115234	9.25556697950469E-009
394.096282958984	9.50312539771403E-009
394.457092285156	9.28922894161133E-009
394.817901611328	9.46098399623452E-009
395.178741455078	8.87586715236921E-009
395.53955078125	9.01439811684668E-009
395.900360107422	8.57352144834067E-009
396.261169433594	8.84869333361848E-009
396.622009277344	9.11155684235609E-009
396.982818603516	9.41913569363351E-009
397.343627929687	8.86363604735152E-009
397.704467773438	8.30707325150115E-009
398.065277099609	8.39628100379741E-009
398.426086425781	8.143209662137E-009
398.786895751953	8.32741609002596E-009
399.147735595703	7.79821984764339E-009
399.508544921875	8.63286420127452E-009
399.869354248047	8.72254979356057E-009
400.230194091797	6.12958750423331E-009
400.591003417969	5.98283333985705E-009
400.951812744141	7.75101405281475E-009
401.312622070313	1.08139506238558E-008
401.673461914063	1.05052437859854E-008
402.034271240234	8.48865155944623E-009
402.395080566406	8.75578276549049E-009
402.755920410156	9.38231536906642E-009
403.116729736328	9.57578460969444E-009
403.4775390625	9.34269994701253E-009
403.838348388672	9.0433482924368E-009
404.199188232422	9.1809786439967E-009
404.559997558594	8.45492387213653E-009
404.917694091797	7.69177699311285E-009
405.275390625	7.12352843379449E-009
405.633117675781	7.79720465970968E-009
405.990814208984	8.28912050110375E-009
406.348510742188	8.85690099039493E-009
406.706207275391	8.68435634515663E-009
407.063903808594	8.46115000285863E-009
407.421600341797	8.49836379046565E-009
407.779296875	8.02152921863808E-009
408.137023925781	8.62041193983032E-009
408.494720458984	8.0259212609235E-009
408.852416992188	8.56485193878598E-009
409.210113525391	8.50706438626503E-009
409.567810058594	9.04024588521679E-009
409.925506591797	8.9873797293194E-009
410.283233642578	9.02837271610224E-009
410.640930175781	9.24702270310718E-009
410.998626708984	9.13862230333962E-009
411.356323242188	8.924459393711E-009
411.714019775391	8.53439452441762E-009
412.071716308594	8.52779802329451E-009
412.429412841797	8.19556422726464E-009
412.787139892578	8.71423111448166E-009
413.144836425781	8.66352412032256E-009
413.502532958984	8.99066243675861E-009
413.860229492188	8.46872616477867E-009
414.217926025391	8.54750226153556E-009
414.575622558594	8.61948201702489E-009
414.933319091797	8.78411121618683E-009
415.291046142578	8.31566726589017E-009
415.648742675781	8.16721890117833E-009
416.006439208984	8.41124236927726E-009
416.364135742188	8.83149553487783E-009
416.721832275391	9.2201668522307E-009
417.079528808594	9.29235799418393E-009
417.437255859375	9.22908149902924E-009
417.794952392578	8.46530134879231E-009
418.152648925781	7.97812482744575E-009
418.510345458984	8.20486878438942E-009
418.868041992188	8.40195113482878E-009
419.225738525391	8.27869151009963E-009
419.583435058594	8.1189046596819E-009
419.941162109375	8.26786816787717E-009
420.298858642578	8.73014638358427E-009
420.656555175781	8.84517170618437E-009
421.014251708984	9.13872888474998E-009
421.371948242188	8.93746765484593E-009
421.729644775391	8.87585205333608E-009
422.087341308594	8.49356407428559E-009
422.445068359375	8.5117610737484E-009
422.802764892578	8.27629964561538E-009
423.160461425781	8.48437053946327E-009
423.518157958984	8.55629966878269E-009
423.875854492188	8.56891180234243E-009
424.233551025391	8.55784332287612E-009
424.591278076172	8.24956458700399E-009
424.948974609375	8.42803959955063E-009
425.306671142578	8.23728552035163E-009
425.664367675781	8.1789215400363E-009
426.022064208984	8.48289527510815E-009
426.379760742188	8.86128770360983E-009
426.737457275391	9.2018757058554E-009
427.095184326172	8.90037821221767E-009
427.452880859375	8.77144046285139E-009
427.810577392578	8.49158610094491E-009
428.168273925781	8.55986304060252E-009
428.525970458984	8.27948554160685E-009
428.883666992188	8.09617084485126E-009
429.241394042969	8.23063750488018E-009
429.599090576172	8.1808195773192E-009
429.956787109375	8.13867195859075E-009
430.314483642578	7.80201148131709E-009
430.672180175781	7.45433847981758E-009
431.029876708984	7.41633199297098E-009
431.387573242188	7.59288276697134E-009
431.745300292969	7.9924911133844E-009
432.102996826172	8.29746582553526E-009
432.460693359375	8.20987544614127E-009
432.818389892578	8.05568944883817E-009
433.176086425781	7.73385977481666E-009
433.533782958984	7.55368922966682E-009
433.891479492188	7.61778284896764E-009
434.249206542969	7.69811858702951E-009
434.606903076172	7.86213139036818E-009
434.964599609375	7.9746058645469E-009
435.322296142578	8.08649325279021E-009
435.679992675781	8.02098565344522E-009
436.027008056641	7.80458275784213E-009
436.3740234375	7.73396813258387E-009
436.721038818359	7.3975368053425E-009
437.068054199219	7.5267685417657E-009
437.415069580078	7.71450725522982E-009
437.762084960937	8.16111178636447E-009
438.109100341797	8.18857959217212E-009
438.456115722656	8.13591416459758E-009
438.803100585937	7.90451704091311E-009
439.150115966797	7.79069608825012E-009
439.497131347656	7.51837969659164E-009
439.844146728516	7.54924567303306E-009
440.191162109375	7.73587149893729E-009
440.538177490234	7.79141728912691E-009
440.885192871094	7.6316988284475E-009
441.232208251953	7.45953343539441E-009
441.579223632812	7.68732810740857E-009
441.926239013672	7.70072716704817E-009
442.273223876953	7.81857689702292E-009
442.620239257812	7.88925458294898E-009
442.967254638672	7.73029551481841E-009
443.314270019531	7.70485275580768E-009
443.661285400391	7.55986384604057E-009
444.00830078125	7.82512188379769E-009
444.355316162109	7.61877672061928E-009
444.702331542969	7.31928162522877E-009
445.049346923828	7.32617255749801E-009
445.396362304687	7.45998018913951E-009
445.743377685547	7.4075998668377E-009
446.090362548828	7.6369151003064E-009
446.437377929687	7.62114638064304E-009
446.784393310547	7.85181519802336E-009
447.131408691406	7.81616282807818E-009
447.478424072266	7.80155851032305E-009
447.825439453125	7.78706077397828E-009
448.172454833984	7.58813367696121E-009
448.519470214844	7.5088291140446E-009
448.866485595703	7.54484918985554E-009
449.213500976562	7.18847159575375E-009
449.560516357422	7.26982296583856E-009
449.907501220703	7.30425808725954E-009
450.254516601562	7.39395078497296E-009
450.601531982422	7.6164061724171E-009
450.948547363281	7.82808928789791E-009
451.295562744141	8.08265898655236E-009
451.642578125	7.70371144653836E-009
451.989593505859	7.38583905146584E-009
452.336608886719	7.4433073038449E-009
452.683624267578	7.40097405582674E-009
453.030639648438	7.40000816179531E-009
453.377655029297	7.35317096101085E-009
453.724639892578	7.29408844435398E-009
454.071655273438	7.18158421619819E-009
454.418670654297	7.04408797957967E-009
454.765686035156	7.03218550057727E-009
455.112701416016	6.87546508615355E-009
455.459716796875	6.73508981918758E-009
455.806732177734	6.71255095952006E-009
456.153747558594	6.81649359179914E-009
456.500762939453	6.89744528159508E-009
456.847778320313	6.79543887827094E-009
457.194793701172	7.04058367162474E-009
457.541778564453	7.03649316591282E-009
457.888793945313	7.32574489958893E-009
458.235809326172	7.15973280662752E-009
458.582824707031	7.2221162383812E-009
458.929840087891	7.40895922390905E-009
459.27685546875	7.32736449293725E-009
459.623870849609	7.15411641039054E-009
459.970886230469	6.78453426772307E-009
460.317901611328	6.79150469196088E-009
460.664916992188	6.95976742903781E-009
461.011932373047	7.11255143670542E-009
461.358917236328	7.14987136163359E-009
461.705932617188	7.04728098099849E-009
462.052947998047	6.78543310428381E-009
462.399963378906	6.87015289102533E-009
462.746978759766	6.77247102842671E-009
463.093994140625	6.99985092111888E-009
463.441009521484	6.80445921830142E-009
463.788024902344	6.88143586557999E-009
464.135040283203	6.79725209451476E-009
464.482055664063	6.79278056026078E-009
464.829071044922	6.6967054124234E-009
465.176055908203	6.6363141648651E-009
465.523071289063	6.44949738060063E-009
465.870086669922	6.31525409744427E-009
466.217102050781	6.35294927775476E-009
466.564117431641	6.35282315641916E-009
466.9111328125	6.62998145273264E-009
467.258148193359	6.65905774965836E-009
467.605163574219	6.74116185095386E-009
467.952178955078	6.82180800737342E-009
468.299194335937	6.85940637623617E-009
468.646209716797	6.74017286428352E-009
468.993194580078	6.61150556524603E-009
469.340209960937	6.46628439682217E-009
469.687225341797	6.3988339071841E-009
470.034240722656	6.35753005795436E-009
470.381256103516	6.1652398741785E-009
470.728271484375	6.31195451461508E-009
471.075286865234	6.33825525397924E-009
471.422302246094	6.14804607224073E-009
471.769317626953	6.08237282762047E-009
472.116333007812	5.78144732088504E-009
472.463348388672	6.05970340572526E-009
472.810333251953	6.2032468051143E-009
473.157348632812	6.2831282399145E-009
473.504364013672	6.20346662927318E-009
473.851379394531	6.23001739086249E-009
474.198394775391	6.36063735015569E-009
474.54541015625	6.39620179043732E-009
474.892425537109	6.2305818282482E-009
475.239440917969	6.13198336552045E-009
475.586456298828	6.38510666561842E-009
475.933471679687	6.28819218917442E-009
476.280456542969	6.33010621697849E-009
476.627471923828	6.15148376681418E-009
476.974487304687	6.29249052863656E-009
477.321502685547	6.40338804203111E-009
477.668518066406	6.43219344453882E-009
478.015533447266	6.3595426702534E-009
478.362548828125	6.20194295919418E-009
478.709564208984	5.99914518062406E-009
479.056579589844	5.84860693209066E-009
479.403594970703	5.67863933653712E-009
479.750610351562	5.65910118766055E-009
480.097595214844	5.71303537810763E-009
480.444610595703	5.92380100528089E-009
480.791625976562	6.00104188563932E-009
481.138641357422	5.99498495290618E-009
481.485656738281	5.68820190949282E-009
481.832672119141	5.62307533868989E-009
482.1796875	5.53156986882186E-009
482.526702880859	5.58938229033856E-009
482.873718261719	5.61959767608755E-009
483.220733642578	5.6100240009016E-009
483.567749023438	5.73716540941405E-009
483.914733886719	5.69824232243832E-009
484.261749267578	5.62772894951991E-009
484.608764648438	5.52832490896549E-009
484.955780029297	5.35733146733719E-009
485.302795410156	5.46127632006233E-009
485.649810791016	5.56377166560651E-009
485.996826171875	5.77782310884345E-009
486.343841552734	5.68706814974007E-009
486.690856933594	5.52595436076331E-009
487.037872314453	5.60533353066717E-009
487.384887695313	5.92771831620098E-009
487.731872558594	5.93697180306663E-009
488.078887939453	5.64660185276011E-009
488.425903320313	5.29268673332695E-009
488.772918701172	5.36308952803211E-009
489.119934082031	5.38072120193078E-009
489.466949462891	5.45821166042515E-009
489.81396484375	5.3719348969139E-009
490.160980224609	5.54838930355572E-009
490.507995605469	5.41416333987854E-009
490.855010986328	5.35291944103733E-009
491.202026367188	5.37253574961483E-009
491.549011230469	5.49059953058872E-009
491.896026611328	5.46626921504867E-009
492.243041992188	5.30475618987225E-009
492.590057373047	5.29364152512812E-009
492.937072753906	5.35771649268213E-009
493.284088134766	5.39782485375895E-009
493.631103515625	5.5262110443266E-009
493.978118896484	5.58010482265558E-009
494.325134277344	5.6665694359026E-009
494.672149658203	5.84726755903375E-009
495.019165039063	5.6712670115644E-009
495.366149902344	5.26439336567819E-009
495.713165283203	4.99355046201799E-009
496.060180664063	5.03971397947112E-009
496.407196044922	5.36092192859883E-009
496.754211425781	5.35620170438733E-009
497.101226806641	5.26953058965773E-009
497.4482421875	5.1494590813661E-009
497.795257568359	4.92308060984215E-009
498.142272949219	5.00500041411556E-009
498.489288330078	5.07541297878333E-009
498.836303710937	5.28564525481556E-009
499.183288574219	5.04661690214903E-009
499.530303955078	5.03994979084155E-009
499.877319335937	4.81328221724198E-009
500.224334716797	4.855122082148E-009
500.571350097656	4.77358419459506E-009
500.918365478516	4.96686292095205E-009
501.265380859375	5.25618082392043E-009
501.612396240234	5.46247669319655E-009
501.959411621094	5.40954259165005E-009
502.306427001953	5.38828626162058E-009
502.653442382812	5.14455988920304E-009
503.000427246094	4.98557239936304E-009
503.347442626953	5.09381203883663E-009
503.694458007812	5.07245001557521E-009
504.041473388672	5.11628162058742E-009
504.388488769531	4.94701835052069E-009
504.735504150391	4.81573270150193E-009
505.08251953125	4.96988183940061E-009
505.429534912109	4.84776352394078E-009
505.776550292969	4.90429030719497E-009
506.123565673828	4.52940973616478E-009
506.470581054687	4.70266625640647E-009
506.817565917969	4.84669726574793E-009
507.164581298828	4.95615148921047E-009
507.511596679687	5.1301265457937E-009
507.858612060547	4.98028818185503E-009
508.205627441406	4.99526020547592E-009
508.552642822266	4.77588457670208E-009
508.899658203125	4.74559325169821E-009
509.246673583984	4.81509854211026E-009
509.593688964844	4.67021310512905E-009
509.940704345703	4.74270933636944E-009
510.287689208984	4.75622163875755E-009
510.634704589844	4.87644680191579E-009
510.981719970703	5.23247667416626E-009
511.328735351562	5.36388888860984E-009
511.675750732422	5.21881604598207E-009
512.022766113281	4.76630512835641E-009
512.369750976562	4.71478767138933E-009
512.716796875	4.69526328927827E-009
513.063781738281	4.71920236222445E-009
513.410827636719	4.57338522608097E-009
513.7578125	4.56535342863162E-009
514.104858398438	4.34481828293087E-009
514.451843261719	4.22466328586779E-009
514.798889160156	4.30490088021429E-009
515.145874023438	4.45371073354295E-009
515.492919921875	4.54902382429623E-009
515.839904785156	4.40034852999815E-009
516.186889648438	4.28004920394187E-009
516.533935546875	4.0852117244583E-009
516.880920410156	4.03215238975463E-009
517.227966308594	4.15735668113371E-009
517.574951171875	4.30534097262125E-009
517.921997070313	4.35511804397493E-009
518.268981933594	4.48103953942791E-009
518.616027832031	4.58245663637058E-009
518.963012695313	4.4441819113672E-009
519.31005859375	4.23847978936465E-009
519.657043457031	4.09012823610055E-009
520.004028320313	4.06782829642793E-009
520.35107421875	4.27582502737778E-009
520.698059082031	2.57992294194764E-009
521.045104980469	3.01614333508837E-009
521.39208984375	2.79957990123592E-009
521.739135742188	4.53534987343573E-009
522.086120605469	4.22682910894423E-009
522.433166503906	4.33027258495144E-009
522.780151367188	4.34872982069123E-009
523.127197265625	4.24504298379702E-009
523.474182128906	4.12776657299219E-009
523.821166992188	3.93653820651707E-009
524.168212890625	3.95447763423817E-009
524.515197753906	3.92420496098111E-009
524.862243652344	4.04731714809259E-009
525.209228515625	4.10924894111986E-009
525.556274414063	4.37275282649807E-009
525.903259277344	4.33160574075941E-009
526.250305175781	4.28931956619749E-009
526.597290039063	4.11642142594815E-009
526.9443359375	4.21030632580255E-009
527.291320800781	4.25289758965164E-009
527.638305664063	4.09291267544631E-009
527.9853515625	4.0094145781211E-009
528.332336425781	3.99311295140592E-009
528.679382324219	4.0584264837662E-009
529.0263671875	3.87660747946938E-009
529.373413085937	3.7768668192939E-009
529.720397949219	3.80115805498349E-009
530.067443847656	3.88820664554146E-009
530.414428710937	4.06883904346955E-009
530.761474609375	4.07958422599108E-009
531.108459472656	4.20063761552569E-009
531.455444335937	3.96676114178263E-009
531.802490234375	3.80338516237089E-009
532.149475097656	3.65184438244626E-009
532.496520996094	3.64040109168684E-009
532.843505859375	3.71340402871567E-009
533.190551757812	3.61420782191146E-009
533.537536621094	3.64361341098629E-009
533.884582519531	3.60179663871918E-009
534.231567382812	3.61980223573255E-009
534.57861328125	3.80706977054501E-009
534.925598144531	3.55919205219379E-009
535.272583007812	3.51606210813316E-009
535.61962890625	3.35641892057481E-009
535.966613769531	3.78482356566678E-009
536.313659667969	3.94129351377615E-009
536.66064453125	3.98487198793873E-009
537.007690429687	3.70166342023026E-009
537.354675292969	3.54158991022757E-009
537.701721191406	3.49090978346567E-009
538.048706054687	3.60304119872978E-009
538.395751953125	3.67115116084449E-009
538.742736816406	3.5482230487105E-009
539.089721679687	3.30728111563872E-009
539.436767578125	3.35100436288371E-009
539.783752441406	3.49341733318909E-009
540.130798339844	3.63974872463757E-009
540.477783203125	3.5755085558975E-009
540.824829101562	3.16551962420419E-009
541.171813964844	3.2934708293908E-009
541.518859863281	3.23490034759288E-009
541.865844726562	3.58417162615865E-009
542.212890625	3.52580298290661E-009
542.559875488281	3.74043551687464E-009
542.906860351562	3.6271532444232E-009
543.25390625	3.64980956568672E-009
543.600891113281	3.58662166632939E-009
543.947937011719	3.66643293503444E-009
544.294921875	3.45190298567388E-009
544.641967773438	3.35086003389051E-009
544.988952636719	3.21279070014668E-009
545.335998535156	3.20328386038682E-009
545.682983398438	3.14877857121587E-009
546.030029296875	3.06923908510726E-009
546.364624023438	3.25526494648898E-009
546.699279785156	3.26809734829681E-009
547.033874511719	3.38453198800437E-009
547.368530273438	3.38296080037992E-009
547.703186035156	3.24894888770189E-009
548.037780761719	3.31338267933745E-009
548.372436523438	2.92412249969232E-009
548.707092285156	3.07502179275332E-009
549.041687011719	2.90453905371635E-009
549.376342773438	3.24267479534512E-009
549.7109375	3.1051556881323E-009
550.045593261719	3.30545990578912E-009
550.380249023438	3.02352343162227E-009
550.71484375	2.9856896954783E-009
551.049499511719	2.77245404411985E-009
551.384155273438	2.76109402008728E-009
551.71875	2.50317722105819E-009
552.053405761719	2.75140954464348E-009
552.388000488281	2.93814572671636E-009
552.72265625	3.19744808408018E-009
553.057312011719	3.11469317004764E-009
553.391906738281	2.96902413765565E-009
553.7265625	2.98824076594428E-009
554.061218261719	2.63016186607956E-009
554.395812988281	2.78334222336696E-009
554.73046875	2.70018429837648E-009
555.065124511719	2.88962853645103E-009
555.399719238281	2.87300294665727E-009
555.734375	2.87460766301706E-009
556.068969726562	2.8035285204453E-009
556.403625488281	2.65570143653804E-009
556.73828125	2.66510102875372E-009
557.072875976562	2.620281103205E-009
557.407531738281	2.6229816096901E-009
557.7421875	2.82597456546796E-009
558.076782226562	2.81072320973408E-009
558.411437988281	2.84199175304423E-009
558.746032714844	2.56775289919631E-009
559.080688476562	2.85562795632188E-009
559.415344238281	2.85284529333296E-009
559.749938964844	3.05500647002077E-009
560.084594726562	2.99217983723565E-009
560.419250488281	2.86328249998746E-009
560.753845214844	2.57094567857052E-009
561.088500976562	2.49239895389053E-009
561.423156738281	2.53907694869326E-009
561.757751464844	2.71279554375781E-009
562.092407226562	2.81852319261588E-009
562.427001953125	2.84430434760452E-009
562.761657714844	2.75126854631935E-009
563.096313476562	2.48506615285748E-009
563.430908203125	2.39330000262328E-009
563.765563964844	2.31182295529209E-009
564.100219726562	2.37312347550755E-009
564.434814453125	2.51103537962649E-009
564.769470214844	2.64592658894003E-009
565.104064941406	2.54237497721022E-009
565.438720703125	2.44250708547611E-009
565.773376464844	2.44018183437333E-009
566.107971191406	2.489877415357E-009
566.442626953125	2.26348473297833E-009
566.777282714844	2.18505302740368E-009
567.111877441406	2.25827845312665E-009
567.446533203125	2.53176657416532E-009
567.781127929687	2.47743625614305E-009
568.115783691406	2.41945152801293E-009
568.450439453125	2.50538967350167E-009
568.785034179687	2.71370859117326E-009
569.119689941406	2.69394129226441E-009
569.454345703125	2.71483280300799E-009
569.788940429687	2.53764831370518E-009
570.123596191406	2.4782094154574E-009
570.458251953125	2.46672238191081E-009
570.792846679687	2.31015451213068E-009
571.127502441406	2.37786723644717E-009
571.462097167969	2.08129669054813E-009
571.796752929687	2.16848716760865E-009
572.131408691406	2.08468331486245E-009
572.466003417969	2.05588635004972E-009
572.800659179687	1.94864613334289E-009
573.135314941406	1.97464289364291E-009
573.469909667969	2.08285344527326E-009
573.804565429687	2.2696242663045E-009
574.13916015625	2.20513141080403E-009
574.473815917969	2.19233786680206E-009
574.808471679687	2.20763918257205E-009
575.14306640625	2.36094988004254E-009
575.477722167969	2.35264541181834E-009
575.812377929687	2.12888306982961E-009
576.14697265625	2.1024042506923E-009
576.481628417969	2.33951946704281E-009
576.816284179688	2.33870878219022E-009
577.15087890625	2.08433492687732E-009
577.485534667969	1.81318926539831E-009
577.820129394531	2.09014072716229E-009
578.15478515625	2.29121921435649E-009
578.489440917969	2.37646347045484E-009
578.824035644531	2.00674499239994E-009
579.15869140625	1.69535374627827E-009
579.493347167969	1.66889857489139E-009
579.827941894531	1.98628469227913E-009
580.16259765625	2.14716955326821E-009
580.497192382813	2.06665329294253E-009
580.831848144531	2.00635663638593E-009
581.16650390625	2.07889150338758E-009
581.501098632813	2.24371476953422E-009
581.835754394531	2.26752172594047E-009
582.17041015625	2.19549889379778E-009
582.505004882813	2.09086437052974E-009
582.839660644531	1.85701642951841E-009
583.174255371094	1.78500325631603E-009
583.508911132813	1.7139976105085E-009
583.843566894531	1.83277926169012E-009
584.178161621094	2.05328198887855E-009
584.512817382813	2.29844454580075E-009
584.847473144531	2.23961649226112E-009
585.182067871094	1.99453520366433E-009
585.516723632813	1.91413707106847E-009
585.851379394531	2.07267203400363E-009
586.185974121094	2.06674433123055E-009
586.520629882813	2.11311990128138E-009
586.855224609375	1.98395322392742E-009
587.189880371094	2.19822204883258E-009
587.524536132813	2.03011318866686E-009
587.859130859375	2.08460559925072E-009
588.193786621094	1.95311078421412E-009
588.528442382813	1.84994752849832E-009
588.863037109375	1.50775936180736E-009
589.197692871094	1.61154634081839E-009
589.532287597656	1.64846425398935E-009
589.866943359375	1.96190397261375E-009
590.201599121094	1.8785981659164E-009
590.536193847656	1.69534219995882E-009
590.870849609375	1.74418512965957E-009
591.205505371094	1.74598402402637E-009
591.540100097656	1.89449744780745E-009
591.874755859375	1.47395395888594E-009
592.209411621094	1.45246570326663E-009
592.544006347656	1.46901391051557E-009
592.878662109375	1.91387594661307E-009
593.213256835938	1.81522297193482E-009
593.547912597656	1.95497973365377E-009
593.882568359375	1.73334724351548E-009
594.217163085938	1.71493697020964E-009
594.551818847656	1.60257618286863E-009
594.886474609375	1.43699430132926E-009
595.221069335938	1.574797847681E-009
595.555725097656	1.60050006581258E-009
595.890319824219	1.93212112975516E-009
596.224975585938	1.76724779255011E-009
596.559631347656	1.56271129370111E-009
596.894226074219	1.09745346144052E-009
597.228881835938	1.10043307799401E-009
597.563537597656	1.00498287469719E-009
597.898132324219	1.32916444517406E-009
598.232788085938	1.68423741619961E-009
598.5673828125	1.85702786481556E-009
598.902038574219	1.63673663511332E-009
599.236694335938	1.3327237091687E-009
599.5712890625	1.45285083963387E-009
599.905944824219	1.68361891095259E-009
600.240600585938	1.84875093012238E-009
600.5751953125	1.74553482779061E-009
600.909851074219	1.84772019906632E-009
601.244506835938	1.73081193821645E-009
601.5791015625	1.56591706268472E-009
601.913757324219	1.33007060920676E-009
602.248352050781	1.34288080655409E-009
602.5830078125	1.34618993730129E-009
602.917663574219	1.39127886988888E-009
603.252258300781	1.29300981033254E-009
603.5869140625	1.49662493509339E-009
603.921569824219	1.44322975792477E-009
604.256164550781	1.58376345371636E-009
604.5908203125	1.56464874390139E-009
604.925415039063	1.61413937771471E-009
605.260070800781	1.5476251391533E-009
605.5947265625	1.48281931178218E-009
605.929321289063	1.5876652215141E-009
606.263977050781	1.46879219897755E-009
606.5986328125	1.45029088738369E-009
606.933227539063	1.16614007339422E-009
607.267883300781	1.28407418031884E-009
607.6025390625	1.39831957124414E-009
607.937133789063	1.77060432982046E-009
608.271789550781	1.88678783707985E-009
608.606384277344	1.78995629429579E-009
608.941040039063	1.33851829620113E-009
609.275695800781	1.06531494736828E-009
609.610290527344	1.01075470215761E-009
609.944946289063	1.04967401437506E-009
610.279602050781	1.22846233185925E-009
610.614196777344	1.22733434526623E-009
610.948852539063	1.38125044735204E-009
611.283447265625	1.28939081633916E-009
611.618103027344	1.32023725285535E-009
611.952758789063	1.28950294886465E-009
612.287353515625	9.82654846382047E-010
612.622009277344	9.13246533951195E-010
612.956665039063	8.43763559021937E-010
613.291259765625	1.32035771205352E-009
613.625915527344	1.40474742948982E-009
613.960510253906	1.33670419177889E-009
614.295166015625	1.09185938068634E-009
614.629821777344	9.86079662368411E-010
614.964416503906	1.07143638405915E-009
615.299072265625	1.22823440307229E-009
615.633728027344	1.23003940366573E-009
615.968322753906	1.23408172569839E-009
616.302978515625	1.13737319562546E-009
616.637634277344	1.09207742848838E-009
616.972229003906	1.05918696036156E-009
617.306884765625	9.79105241327716E-010
617.641479492188	1.21550425280503E-009
617.976135253906	1.38731526266866E-009
618.310791015625	1.31993682650489E-009
618.645385742188	1.37209754669243E-009
618.980041503906	1.30799993058872E-009
619.314697265625	1.40100986367742E-009
619.649291992188	9.82484316125465E-010
619.983947753906	9.84197612297066E-010
620.318542480469	1.00241592804196E-009
620.653198242188	1.26530275146308E-009
620.987854003906	1.16932419302884E-009
621.322448730469	1.26107846387669E-009
621.657104492188	1.09739328735259E-009
621.991760253906	1.0624486845856E-009
622.326354980469	7.69509844733562E-010
622.661010742188	9.14480158265007E-010
622.995666503906	1.00002151004475E-009
623.330261230469	1.06618491813038E-009
623.664916992188	1.04330233341443E-009
623.99951171875	1.01922803530385E-009
624.334167480469	1.11744880015863E-009
624.668823242188	8.15969181111598E-010
625.00341796875	6.2989391480528E-010
625.338073730469	4.02766958673695E-010
625.672729492188	8.06505306982785E-010
626.00732421875	8.62201032791887E-010
626.341979980469	1.02808872526339E-009
626.676574707031	1.15322595917178E-009
627.01123046875	1.01697328336314E-009
627.345886230469	8.41075153967807E-010
627.680480957031	6.64880983602956E-010
628.01513671875	5.17554221701744E-010
628.349792480469	1.13117015754227E-009
628.684387207031	8.8617868598817E-010
629.01904296875	1.04981356940925E-009
629.353637695313	5.18839193830445E-010
629.688293457031	5.06073016826036E-010
630.02294921875	5.75666847524303E-010
630.357543945313	6.29301166732432E-010
630.692199707031	6.56850740465842E-010
631.02685546875	7.51450124347741E-010
631.361450195313	8.87142803662755E-010
631.696105957031	9.80925007887379E-010
632.03076171875	9.80150627327703E-010
632.365356445313	8.85074735723634E-010
632.700012207031	8.4242468556539E-010
633.025573730469	7.74386388346926E-010
633.351135253906	7.04367508763681E-010
633.676696777344	7.4472655819946E-010
634.002258300781	1.05395836502709E-009
634.327819824219	1.10983366941042E-009
634.653381347656	1.17492537921038E-009
634.978942871094	1.19810206200555E-009
635.304504394531	1.36002498152266E-009
635.630065917969	1.41215339422018E-009
635.955627441406	1.34615296687457E-009
636.281188964844	9.25830745401868E-010
636.606750488281	9.37566801972878E-010
636.932312011719	7.35495553350063E-010
637.257873535156	1.10945763687198E-009
637.583435058594	8.69533112179965E-010
637.908996582031	7.87982401551091E-010
638.234558105469	8.25332857612438E-010
638.560119628906	9.97398719171372E-010
638.885681152344	9.97726123941334E-010
639.211242675781	6.00257898941692E-010
639.536804199219	9.34196608959326E-010
639.862365722656	8.29021518100603E-010
640.187927246094	8.55239212782521E-010
640.513488769531	2.14024062361595E-010
640.839050292969	1.87282106489661E-010
641.164611816406	7.35512650784642E-010
641.490173339844	8.69474547915416E-010
641.815734863281	1.20394938463164E-009
642.141296386719	1.01736785662609E-009
642.466857910156	9.5008878542302E-010
642.792419433594	1.15048293114484E-009
643.117980957031	9.35004962343555E-010
643.443542480469	9.07801500638072E-010
643.769104003906	6.96312840720026E-010
644.094665527344	8.46249903485585E-010
644.420227050781	7.83107412249961E-010
644.745788574219	9.85352355264979E-010
645.071350097656	7.98302035587284E-010
645.396911621094	1.08183662028694E-009
645.722473144531	6.91358970072997E-010
646.048034667969	6.95600188560519E-010
646.373596191406	6.43182285209321E-010
646.699157714844	7.82121978293304E-010
647.024719238281	5.90705762082422E-010
647.350280761719	2.89542584352986E-010
647.675842285156	2.07783720784782E-010
648.001403808594	3.32620514464921E-010
648.326965332031	5.27669463679103E-010
648.652526855469	6.39335528962448E-010
648.978088378906	9.07259878335509E-010
649.303649902344	1.03724862032806E-009
649.629211425781	7.45989103823064E-010
649.954772949219	5.7773247297277E-010
650.280334472656	4.66562066758769E-010
650.605895996094	4.11337436334591E-010
650.931457519531	4.98587504615955E-010
651.257019042969	3.99386995697526E-010
651.582580566406	7.31229132799882E-010
651.908142089844	4.60520482858939E-010
652.233703613281	4.33493296814191E-010
652.559265136719	4.1898717828559E-010
652.884765625	5.07620223633154E-010
653.210327148438	5.96437177424747E-010
653.535888671875	7.3116140919538E-010
653.861450195313	7.92849230712989E-010
654.18701171875	8.13013822931197E-010
654.512573242188	6.08032568738537E-010
654.838134765625	3.71540742616361E-010
655.163696289063	4.46639641937807E-010
655.4892578125	5.81993175874374E-010
655.814819335938	8.23300150276651E-010
656.140380859375	7.7901274320169E-010
656.465942382813	7.65978780403742E-010
656.79150390625	6.64940269512471E-010
657.117065429688	4.70525229889773E-010
657.442626953125	2.13336903698291E-010
657.768188476563	1.98518812499771E-010
658.09375	2.60692162301623E-010
658.419311523437	2.00109484538302E-010
658.744873046875	2.46832332351232E-010
659.070434570312	6.03687655420515E-010
659.39599609375	7.14883985342141E-010
659.721557617187	8.10648936866443E-010
660.047119140625	6.41531550105157E-010
660.372680664062	5.02808406022126E-010
660.6982421875	2.05402791997322E-010
661.023803710937	3.32264715741104E-010
661.349365234375	3.17535192584373E-010
661.674926757812	8.27301782635459E-010
662.00048828125	2.88181506435947E-010
662.326049804687	3.68620717283719E-010
662.651611328125	3.22361408400251E-011
662.977172851562	3.38378297604081E-010
663.302734375	8.42438341308593E-010
663.628295898438	6.82622569581071E-010
663.953857421875	9.81193237770128E-010
664.279418945313	4.76447215014275E-010
664.60498046875	5.58114443549584E-010
664.930541992188	1.64944474745354E-010
665.256103515625	2.31381011572829E-010
665.581665039063	2.15983675388998E-010
665.9072265625	2.66285798966592E-010
666.232788085938	2.50439335935937E-010
666.558349609375	2.8489605119475E-010
666.883911132813	2.18489351611062E-010
667.20947265625	5.55865742324357E-010
667.535034179688	1.52365092764839E-010
667.860595703125	5.10501606265645E-011
668.186157226563	-5.97544569380659E-010
668.51171875	-5.12890875603578E-011
668.837280273437	5.11400366498549E-011
669.162841796875	3.93677895837996E-010
669.488403320312	5.83402881559891E-010
669.81396484375	9.5185248571994E-010
670.139526367187	8.52587833666263E-010
670.465087890625	5.40633704471105E-010
670.790649414062	3.48763962154663E-010
671.1162109375	-6.97741656119355E-011
671.441772460937	1.05268058159247E-010
671.767333984375	-1.23286533759703E-010
672.092895507812	5.47658973726328E-010
672.41845703125	3.36182387483674E-010
672.744018554687	4.6172088374874E-010
673.069580078125	2.85321932746996E-010
673.395141601562	7.88922205341436E-010
673.720703125	7.59427021268522E-010
674.046264648438	8.89994078434597E-010
674.371826171875	5.65072988401027E-010
674.697387695313	5.83895432004766E-010
675.02294921875	6.21444395942916E-010
675.348510742188	8.98570162721768E-010
675.674072265625	1.06866937521488E-009
675.999633789063	9.63962243361038E-010
676.3251953125	8.92397322704852E-010
676.650756835938	6.88725521058586E-010
676.976318359375	5.96512339523514E-010
677.301879882813	2.24262469705749E-010
677.62744140625	5.81785508657617E-010
677.953002929688	1.03511110793875E-009
678.278564453125	9.63205848414361E-010
678.604125976563	8.15679690457927E-010
678.9296875	3.23882892727667E-010
679.255249023437	5.73748604182356E-010
679.580810546875	4.81468143131991E-010
679.906372070312	2.51278164942192E-010
680.23193359375	-1.93817947802266E-011
680.557495117187	1.94186593888146E-011
680.883056640625	6.25221541206145E-010
681.208618164062	1.43555822784691E-009
681.5341796875	1.26166899150348E-009
681.859741210937	7.88524356920561E-010
682.185302734375	2.76685202527105E-010
682.510864257812	4.37053948587618E-010
682.83642578125	6.9877964525844E-010
683.161987304687	6.82457812484216E-010
683.487548828125	6.63029908753998E-010
683.813110351562	6.05723526891921E-011
684.138671875	-2.63024824143088E-010
684.464233398438	-5.90394844124376E-010
684.789794921875	-6.14386944097767E-011
685.115356445313	3.70553643325167E-010
685.44091796875	1.0115027704316E-009
685.766479492188	1.21828858112849E-009
686.092041015625	8.27792612234646E-010
686.417602539063	3.32861682661445E-010
686.7431640625	5.85495152360949E-010
687.068725585938	6.72299160786594E-010
687.394287109375	5.90566984204344E-010
687.719848632813	7.62429785972074E-010
688.04541015625	3.62186586277957E-010
688.370971679688	8.34996349841077E-010
688.696533203125	4.30682378649294E-010
689.022094726563	6.68192445818505E-010
689.34765625	-2.3739143983903E-010
689.673217773437	-3.25341531492995E-010
689.998779296875	-8.741829482517E-011
690.324340820312	4.19123596939741E-010
690.64990234375	4.4248701924765E-010
690.975463867187	6.65981783609659E-011
691.301025390625	1.55369855869836E-010
691.626586914062	-1.55818469238511E-010
691.9521484375	4.92391516448976E-010
692.277709960937	5.84104542511454E-010
692.603271484375	8.81464179425251E-010
692.928833007812	8.39926794782286E-010
693.25439453125	5.02766994703308E-010
693.579956054687	4.13188205872217E-010
693.905517578125	3.22118887119416E-010
694.231079101562	6.47603026759924E-010
694.556640625	8.3816142915083E-010
694.882202148438	1.26651233944841E-009
695.207763671875	1.24982557636599E-009
695.533325195313	7.82900189122415E-010
695.85888671875	-1.19012938393226E-010
696.184448242188	1.19640103379837E-010
696.510009765625	4.08866690504439E-010
696.828369140625	2.41986413546114E-011
697.146789550781	-1.7044285427481E-010
697.465209960937	-5.13633968690641E-010
697.783569335938	5.42243361323358E-010
698.101989746094	2.22978357999892E-010
698.42041015625	8.96491714197367E-010
698.73876953125	1.49480913758104E-010
699.057189941406	9.75123759516805E-010
699.375549316406	6.51300180454228E-010
699.693969726563	7.31823490696115E-010
700.012390136719	1.11466280650063E-009
700.330749511719	1.57893509378226E-009
700.649169921875	1.92340521287804E-009
700.967529296875	7.23647031186658E-010
701.285949707031	7.02494284965383E-010
701.604370117187	7.30822902195172E-010
701.922729492188	8.11726519334144E-010
702.241149902344	6.30054397543489E-010
702.5595703125	8.43292435881438E-010
702.8779296875	1.13868514617366E-009
703.196350097656	9.85184600565958E-010
703.514709472656	-2.68313565809919E-011
703.833129882813	-1.0769062031013E-010
704.151550292969	-8.14067646626171E-010
704.469909667969	8.18328946272651E-011
704.788330078125	-1.10141833153943E-010
705.106689453125	3.0387117821995E-010
705.425109863281	3.33676308805764E-010
705.743530273437	8.07799827029498E-010
706.061889648438	6.17086048926296E-010
706.380310058594	-1.12531109430769E-010
706.69873046875	-1.24784393928934E-009
707.01708984375	-7.41012973204391E-010
707.335510253906	-5.71742479749116E-011
707.653869628906	8.31581414839633E-010
707.972290039063	4.90053275736813E-010
708.290710449219	2.61231314357957E-010
708.609069824219	2.92330742945879E-010
708.927490234375	2.64575583663884E-010
709.245849609375	4.72817285324112E-010
709.564270019531	-5.91893062340532E-011
709.882690429688	-8.90926846186524E-011
710.201049804687	-8.95948315537964E-011
710.519470214844	9.35032051785356E-010
710.837890625	1.00051256168854E-009
711.15625	1.03712238797016E-009
711.474670410156	3.97128219198351E-010
711.793029785156	2.45588799296925E-010
712.111450195313	4.93237395371438E-010
712.429870605469	5.58517510018675E-010
712.748229980469	8.1149098551947E-010
713.066650390625	6.28584614914551E-011
713.385009765625	-1.89487855961623E-010
713.703430175781	3.80605408301093E-010
714.021850585938	8.91851315021341E-010
714.340209960937	1.34719546629469E-009
714.658630371094	7.7391498765067E-010
714.97705078125	5.51290235684121E-010
715.29541015625	6.18787188155778E-010
715.613830566406	1.96755667314363E-010
715.932189941406	1.31566715855236E-010
716.250610351562	-4.62374305509883E-010
716.569030761719	-2.98309849044998E-010
716.887390136719	2.96616020634133E-009
717.205810546875	2.07997974399632E-009
717.524169921875	2.52974285963603E-009
717.842590332031	-7.77620301484205E-010
718.161010742188	5.78572745268957E-010
718.479370117187	1.27035393315822E-009
718.797790527344	1.27932631155403E-009
719.1162109375	1.52984713785997E-009
719.4345703125	9.40332700594126E-010
719.752990722656	1.54277779440548E-009
720.071350097656	1.65084412806493E-009
720.389770507812	2.19362616959984E-009
720.708190917969	1.38760669621263E-009
721.026550292969	1.35969657755197E-009
721.344970703125	6.46199704856798E-010
721.663330078125	2.02480698874297E-009
721.981750488281	1.26829469149214E-009
722.300170898438	8.78033923346067E-010
722.618530273437	1.83110832052691E-010
722.936950683594	6.64611476963728E-010
723.25537109375	2.58663396257575E-010
723.57373046875	-7.45036879412631E-011
723.892150878906	-4.1254341609509E-010
724.210510253906	6.03650796016098E-010
724.528930664062	3.0380128968055E-010
724.847351074219	7.63189372809947E-011
725.165710449219	-6.89845014445467E-010
725.484130859375	-1.07780151470394E-009
725.802490234375	-5.40951450300753E-010
726.120910644531	1.55717522209997E-010
726.439331054687	5.06640840391981E-010
726.757690429688	7.04365066273027E-010
727.076110839844	8.6020422488081E-015
727.39453125	1.98576946552897E-010
727.712890625	-4.00028170310929E-011
728.031311035156	-5.62763335931749E-010
728.349670410156	-2.41707820425319E-010
728.668090820312	4.0354542624188E-011
728.986511230469	1.17916587605293E-009
729.304870605469	1.59915147790457E-009
729.623291015625	4.13506284768772E-010
729.941650390625	2.49158277343398E-010
730.260070800781	1.25142396445455E-010
730.578491210937	1.76742587232326E-009
730.896850585938	1.05805986194696E-009
731.215270996094	5.54387369344767E-010
731.53369140625	-1.24827237435454E-009
731.85205078125	-1.56263879613761E-009
732.170471191406	-1.57159174563049E-009
732.488830566406	-7.87610532348992E-010
732.807250976563	4.3889749473669E-011
733.125671386719	-7.06972924646721E-010
733.444030761719	-1.42116285406502E-009
733.762451171875	-1.69524527748877E-009
734.080810546875	1.34114053196299E-010
734.399230957031	1.70661507148395E-009
734.717651367187	1.22144339087527E-009
735.036010742188	4.54188103793385E-010
735.354431152344	-2.28738153418284E-010
735.6728515625	9.18542575334413E-010
735.9912109375	9.26566046111077E-011
736.309631347656	-9.28555454748903E-010
736.627990722656	-3.25791699173905E-010
736.946411132813	2.33177782638094E-010
737.264831542969	1.45509237992059E-009
737.583190917969	8.95753970997504E-010
737.901611328125	-2.84269663364256E-010
738.219970703125	-8.54206649858469E-010
738.532653808594	-4.2758124818576E-010
738.845275878906	9.50530543164518E-010
739.157897949219	1.76519387995455E-009
739.470520019531	9.60795332183295E-011
739.783142089844	4.33213964701196E-010
740.095764160156	-1.20319731955476E-009
740.408386230469	-1.63625080151775E-009
740.721008300781	-2.41505793141528E-009
741.033630371094	-1.40492106837087E-009
741.346252441406	-3.40006772736601E-010
741.658874511719	-3.89928839217291E-010
741.971496582031	-1.07152031691982E-009
742.284118652344	-2.93134294615527E-010
742.596740722656	-4.88526052944138E-010
742.909362792969	4.91158017035254E-011
743.221984863281	1.47483192325382E-010
743.534606933594	6.39032604610179E-010
743.847229003906	9.8474714493868E-011
744.159851074219	-1.96430718912843E-010
744.472473144531	7.38453076465362E-010
744.785095214844	1.08233266793434E-009
745.097778320312	-7.90570664488399E-010
745.410400390625	-1.09225362088239E-009
745.723022460937	-1.24413311023455E-016
746.03564453125	2.73337907863436E-009
746.348266601562	1.19021670297315E-009
746.660888671875	3.48557377405356E-010
746.973510742188	-1.04849817716968E-009
747.2861328125	3.00354074944664E-010
747.598754882813	-3.50076079236317E-010
747.911376953125	-1.00128148827761E-010
748.223999023437	-9.98183313782874E-010
748.53662109375	-1.99584057614111E-010
748.849243164062	-7.9640016803495E-010
749.161865234375	-5.00130353797701E-011
749.474487304687	1.50291529221747E-010
749.787109375	2.00917185666505E-010
750.099731445313	6.53759157920319E-010
750.412353515625	-4.54142390360346E-010
750.724975585938	-2.02395211701401E-010
751.03759765625	4.06282563147897E-010
751.350219726563	7.11300796041314E-010
751.662902832031	1.77842318649368E-009
751.975524902344	-8.6220791617464E-010
752.288146972656	5.08655617625919E-010
752.600769042969	1.22971632876556E-009
752.913391113281	2.41489939156736E-009
753.226013183594	2.52068965700403E-009
753.538635253906	7.71416763800659E-010
753.851257324219	6.70971223026839E-010
754.163879394531	7.26076365697992E-010
754.476501464844	1.55664078849149E-010
754.789123535156	-4.15322193303425E-010
755.101745605469	-1.55808155266612E-009
755.414367675781	-3.66016217334675E-010
755.726989746094	-5.24497147103009E-011
756.039611816406	-1.3150680544527E-009
756.352233886719	-1.68326108607175E-009
756.664855957031	-1.42996114949057E-009
756.977478027344	3.7090636118009E-010
757.290100097656	1.27657806547887E-009
757.602722167969	1.8098209597639E-009
757.915405273437	5.35046729144284E-010
758.22802734375	-1.60994759190736E-010
758.540649414062	-8.10222389180382E-010
758.853271484375	-3.25471732898208E-010
759.165893554687	-1.14416387475558E-009
759.478515625	1.74743362886683E-015
759.791137695313	9.34239019478866E-010
760.103759765625	1.92746685279133E-009
760.416381835938	1.32864530488774E-009
760.72900390625	3.32566529870348E-010
761.041625976563	5.02366259702569E-010
761.354248046875	-1.68268760036838E-010
761.666870117187	4.50677911656427E-010
761.9794921875	-3.38868211269272E-010
762.292114257812	6.23010476541452E-010
762.604736328125	7.96089583143811E-010
762.917358398438	1.54904222782193E-009
763.22998046875	1.38197397969719E-009
763.542602539063	1.74176367773171E-010
763.855224609375	5.79321590699067E-010
764.167846679688	-2.04094985356562E-009
764.480529785156	-2.75710698716125E-009
764.793151855469	-4.09478895235793E-009
765.105773925781	-1.01428732079967E-009
765.418395996094	2.15098605593766E-009
765.731018066406	3.87854637295959E-009
766.043640136719	3.36546412960104E-009
766.356262207031	1.80983150688263E-009
766.668884277344	6.67857713576581E-010
766.981506347656	-7.9234840910658E-010
767.294128417969	1.2287848516479E-009
767.606750488281	3.71551345246246E-010
767.919372558594	1.6143822945125E-009
768.231994628906	7.49871220673271E-010
768.544616699219	1.69529323912343E-009
768.857238769531	3.80371067976171E-010
769.169860839844	-6.38212260817284E-011
769.482482910156	5.14024545150704E-010
769.795104980469	1.93399696257757E-009
770.107727050781	7.77754749492487E-010
770.420349121094	-1.96047664213772E-010
770.732971191406	-3.94837162964734E-010
771.045654296875	-9.91684956375138E-010
771.358276367187	-7.98249910616278E-010
771.6708984375	-1.2033116725263E-009
771.983520507812	3.37754851864602E-010
772.296142578125	-6.10332229200594E-010
772.608764648438	-2.0443055581687E-010
772.92138671875	-1.09857513575428E-014
773.234008789063	3.44993089651524E-010
773.546630859375	2.1563617558229E-009
773.859252929688	2.45691667011272E-009
774.171875	2.54854848336095E-009
774.484497070312	1.7131726037789E-009
774.797119140625	3.58504975705998E-010
775.109741210937	1.80656334336504E-009
775.42236328125	1.8153257785869E-009
775.734985351562	3.21663562452557E-009
776.047607421875	1.76344383540084E-009
776.360229492188	6.67915667218466E-010
776.6728515625	-3.72505221113428E-010
776.985473632813	-8.22307277825729E-010
777.298095703125	-2.24818871852328E-010
777.610778808594	3.79656528437522E-010
777.923400878906	1.15138110157176E-009
778.236022949219	8.48093928418336E-010
778.548645019531	-2.31128755023846E-010
778.861267089844	-3.07261716070428E-010
779.173889160156	7.77076736291349E-011
779.486511230469	7.058268414184E-010
779.799133300781	3.18351484063228E-010
780.111755371094	-5.59744250949734E-010
780.424377441406	-1.20717691398653E-009
780.736999511719	-6.4505056851516E-010
781.049621582031	-1.29638166868062E-009
781.362243652344	-1.63211597015156E-010
781.674865722656	4.9618065212087E-010
781.987487792969	1.5013997822777E-009
782.300109863281	1.51365653344726E-009
782.612731933594	-2.53447068887525E-010
782.925354003906	-2.55364285273174E-010
783.237976074219	-1.53861368090702E-009
783.550598144531	2.58113447282327E-010
783.863220214844	-8.691311559339E-011
784.175903320312	5.27605681366339E-010
784.488525390625	8.84772533016331E-011
784.801147460937	-6.22499218838612E-010
785.11376953125	-8.05764455158453E-010
785.426391601562	-2.2577981706462E-009
785.739013671875	-7.2585537580494E-010
786.051635742188	-2.1845083519878E-009
786.3642578125	-5.49772283253702E-010
786.676879882813	1.84238777012347E-010
786.989501953125	3.26648241788519E-009
787.302124023437	1.78254244698195E-009
787.61474609375	5.72204728044312E-010
787.927368164062	-1.24525822986499E-009
788.239990234375	-9.6784268099892E-011
788.552612304687	-5.80320957954683E-010
788.865234375	4.86066464855384E-010
789.177856445313	1.36915034865126E-009
789.490478515625	2.96373592334476E-009
789.803100585938	4.48405668151963E-009
790.11572265625	2.50217757624682E-009
790.428344726563	1.71973058016306E-009
790.741027832031	-2.03987840508013E-010
791.053649902344	1.65102176374887E-009
791.366271972656	1.55009183266941E-009
791.678894042969	2.60336152635432E-009
791.991516113281	2.09350914381901E-009
792.304138183594	2.21264384592246E-009
792.616760253906	8.49552761472694E-010
792.929382324219	2.35612285237607E-009
793.242004394531	1.18329679388296E-009
793.554626464844	6.47068454373567E-010
793.867248535156	-9.7570151957882E-010
794.179870605469	8.75459427174263E-010
794.492492675781	1.44270229096577E-009
794.805114746094	1.34318511868514E-009
795.117736816406	4.51932880007888E-010
795.430358886719	2.84017676044357E-009
795.742980957031	4.01539868022383E-009
796.055603027344	2.3105475310814E-009
796.368225097656	8.10172984255786E-010
796.680847167969	-5.82282833061498E-010
796.993530273437	7.02487512604932E-010
797.30615234375	8.26062940273431E-010
797.618774414062	-9.44280986736601E-010
797.931396484375	5.96617311110492E-010
798.244018554687	2.39867264939519E-010
798.556640625	1.45539225115954E-009
798.869262695313	-6.08191219608756E-010
799.181884765625	-1.47338907741101E-009
799.494506835938	-2.48678522218881E-010
799.80712890625	3.13645642791016E-009
800.119750976563	3.16385095899818E-009
800.432373046875	2.52911774856202E-010
800.744995117187	-4.71229544274365E-009
801.0576171875	-8.06337130399015E-009
801.370239257812	-2.8440689803233E-009
801.682861328125	1.56425916664205E-009
801.995483398438	6.68511646040315E-009
802.30810546875	4.72946171115041E-009
802.620727539063	3.16981685344331E-009
802.933349609375	1.32848398948227E-009
803.245971679688	-6.72626010445043E-010
803.558654785156	4.08677619523345E-010
803.871276855469	-2.76208195204575E-010
804.183898925781	1.67696845299048E-009
804.496520996094	-9.82319670050913E-010
804.809143066406	-3.37794925364676E-009
805.121765136719	-2.82975332055457E-009
805.434387207031	-1.98514316096521E-009
805.747009277344	8.98222580758556E-008
806.059631347656	9.04571635373941E-008
806.372253417969	9.19378280173078E-008
806.684875488281	2.34316521741107E-009
806.997497558594	-1.3233366624732E-009

